Output(v),Output(m)
0,0
0.003,0.005
0.016,0.028
0.04,0.071
0.077,0.134
0.125,0.219
0.197,0.345
0.292,0.513
0.412,0.722
0.554,0.973
0.72,1.264
0.91,1.596
1.122,1.968
1.357,2.38
1.614,2.832
1.895,3.324
2.197,3.854
2.522,4.424
2.868,5.032
3.237,5.678
3.627,6.363
4.039,7.085
4.472,7.845
4.926,8.642
5.402,9.477
5.898,10.348
6.415,11.255
6.953,12.199
7.512,13.179
8.091,14.194
8.69,15.246
9.309,16.332
9.948,17.453
10,18.61
10,19.8
10,21.025
10,22.285
10,23.577
10,24.904
10,26.264
10,27.657
10,29.083
10,30.541
10,32.032
10,33.555
10,35.111
10,36.698
10,38.316
10,39.966
10,41.647
10,43.358
10,45.101
10,46.874
10,48.677
10,50.51
10,52.373
10,54.265
10,56.187
10,58.139
10,60.119
10,62.128
10,64.165
10,66.231
10,68.325
10,70.448
10,72.598
10,74.775
10,76.98
10,79.213
10,81.472
10,83.758
10,86.071
10,88.41
10,90.776
10,93.167
10,95.585
10,98.028
10,100.497
10,102.991
10,105.511
10,108.056
10,110.625
10,113.219
10,115.838
10,118.481
10,121.148
10,123.839
10,126.554
10,129.293
10,132.055
10,134.841
10,137.649
10,140.481
10,143.336
10,146.213
10,149.113
10,152.035
10,154.98
10,157.946
10,160.935
10,163.945
10,166.977
10,170.03
10,173.105
10,176.201
10,179.318
10,182.455
10,185.614
10,188.793
10,191.992
10,195.212
10,198.452
10,201.712
10,204.992
10,208.291
10,211.611
10,214.949
10,218.307
10,221.684
10,225.081
10,228.496
10,231.93
10,235.382
10,238.854
10,242.343
10,245.851
10,249.377
10,252.921
10,256.483
10,260.063
10,263.66
10,267.275
10,270.907
10,274.557
10,278.223
10,281.907
10,285.608
10,289.325
10,293.06
10,296.81
10,300.578
10,304.361
10,308.161
10,311.977
10,315.809
10,319.657
10,323.52
10,327.399
10,331.294
10,335.205
10,339.13
10,343.071
10,347.027
10,350.998
10,354.984
10,358.985
10,363
10,367.03
10,371.075
10,375.134
10,379.207
10,383.295
10,387.396
10,391.512
10,395.642
10,399.785
10,403.942
10,408.113
10,412.297
10,416.495
10,420.706
10,424.93
10,429.168
10,433.418
10,437.682
10,441.958
10,446.247
10,450.549
10,454.864
10,459.191
10,463.53
10,467.882
10,472.246
10,476.623
10,481.011
10,485.411
10,489.824
10,494.248
10,498.684
10,503.131
10,507.591
10,512.061
10,516.544
10,521.037
10,525.542
10,530.058
10,534.585
10,539.123
10,543.673
10,548.233
10,552.804
10,557.385
10,561.977
10,566.58
10,571.194
10,575.818
10,580.452
10,585.096
10,589.751
10,594.416
10,599.091
10,603.776
10,608.471
10,613.176
10,617.891
10,622.615
10,627.349
10,632.093
10,636.846
10,641.609
10,646.381
10,651.162
10,655.953
10,660.753
10,665.562
10,670.38
10,675.207
10,680.044
10,684.889
10,689.742
10,694.605
10,699.476
10,704.356
10,709.245
10,714.142
10,719.048
10,723.962
10,728.884
10,733.815
10,738.754
10,743.701
10,748.656
10,753.619
10,758.59
10,763.57
10,768.557
10,773.552
10,778.554
10,783.565
10,788.583
10,793.609
10,798.642
10,803.683
10,808.731
10,813.787
10,818.85
10,823.921
10,828.998
10,834.083
10,839.175
10,844.274
10,849.381
10,854.494
10,859.614
10,864.741
10,869.875
10,875.016
10,880.163
10,885.318
10,890.479
10,895.646
10,900.821
10,906.001
10,911.189
10,916.382
10,921.582
10,926.789
10,932.001
10,937.22
10,942.446
10,947.677
10,952.915
10,958.158
10,963.408
10,968.664
10,973.926
10,979.193
10,984.467
10,989.746
10,995.031
10,1000.322
10,1005.619
10,1010.921
10,1016.229
10,1021.543
10,1026.862
10,1032.187
10,1037.517
10,1042.852
10,1048.194
10,1053.54
10,1058.892
10,1064.249
10,1069.611
10,1074.979
10,1080.351
10,1085.729
10,1091.112
10,1096.5
10,1101.894
10,1107.292
10,1112.695
10,1118.103
10,1123.516
10,1128.934
10,1134.357
10,1139.784
10,1145.216
10,1150.653
10,1156.095
10,1161.542
10,1166.993
10,1172.448
10,1177.909
10,1183.373
10,1188.843
10,1194.316
10,1199.795
10,1205.277
10,1210.764
10,1216.256
10,1221.751
10,1227.252
10,1232.756
10,1238.264
10,1243.777
10,1249.294
10,1254.815
10,1260.34
10,1265.87
10,1271.403
10,1276.94
10,1282.482
10,1288.027
10,1293.576
10,1299.13
10,1304.687
10,1310.248
10,1315.813
10,1321.381
10,1326.954
10,1332.53
10,1338.11
10,1343.694
10,1349.281
10,1354.872
10,1360.467
10,1366.065
10,1371.667
10,1377.272
10,1382.881
10,1388.494
10,1394.11
10,1399.729
10,1405.352
10,1410.978
10,1416.608
10,1422.241
10,1427.877
10,1433.517
10,1439.16
10,1444.806
10,1450.455
10,1456.108
10,1461.764
10,1467.423
10,1473.085
10,1478.751
10,1484.419
10,1490.091
10,1495.765
10,1501.443
10,1507.124
10,1512.808
10,1518.494
10,1524.184
10,1529.877
10,1535.572
10,1541.271
10,1546.972
10,1552.676
10,1558.384
10,1564.093
10,1569.806
10,1575.522
10,1581.24
10,1586.961
10,1592.685
10,1598.411
10,1604.14
10,1609.872
10,1615.607
10,1621.344
10,1627.083
10,1632.826
10,1638.571
10,1644.318
10,1650.068
10,1655.821
10,1661.576
10,1667.333
10,1673.093
10,1678.856
10,1684.62
10,1690.388
10,1696.158
10,1701.93
10,1707.704
10,1713.481
10,1719.26
10,1725.042
10,1730.825
10,1736.612
10,1742.4
10,1748.191
10,1753.983
10,1759.779
10,1765.576
10,1771.375
10,1777.177
10,1782.981
10,1788.787
10,1794.595
10,1800.405
10,1806.218
10,1812.032
10,1817.849
10,1823.667
10,1829.488
10,1835.311
10,1841.135
10,1846.962
10,1852.791
10,1858.621
10,1864.454
10,1870.289
10,1876.125
10,1881.964
10,1887.804
10,1893.646
10,1899.49
10,1905.336
10,1911.184
10,1917.034
10,1922.885
10,1928.739
10,1934.594
10,1940.451
10,1946.31
10,1952.17
10,1958.033
10,1963.897
10,1969.762
10,1975.63
10,1981.499
10,1987.37
10,1993.242
10,1999.117
10,2004.992
10,2010.87
10,2016.749
10,2022.63
10,2028.512
10,2034.396
10,2040.282
10,2046.169
10,2052.058
10,2057.948
10,2063.84
10,2069.733
10,2075.628
10,2081.525
10,2087.423
10,2093.322
10,2099.223
10,2105.126
10,2111.029
10,2116.935
10,2122.841
10,2128.75
10,2134.659
10,2140.57
10,2146.483
10,2152.397
10,2158.312
10,2164.228
10,2170.146
10,2176.066
10,2181.986
10,2187.908
10,2193.832
10,2199.756
10,2205.682
10,2211.609
10,2217.538
10,2223.468
10,2229.399
10,2235.331
10,2241.265
10,2247.2
10,2253.136
10,2259.073
10,2265.012
10,2270.952
10,2276.893
10,2282.835
10,2288.778
10,2294.723
10,2300.668
10,2306.615
10,2312.563
10,2318.512
10,2324.463
10,2330.414
10,2336.367
10,2342.32
10,2348.275
10,2354.231
10,2360.188
10,2366.146
10,2372.105
10,2378.065
10,2384.026
10,2389.989
10,2395.952
10,2401.917
10,2407.882
10,2413.848
10,2419.816
10,2425.784
10,2431.754
10,2437.724
10,2443.696
10,2449.668
10,2455.642
10,2461.616
10,2467.591
10,2473.568
10,2479.545
10,2485.523
10,2491.502
10,2497.482
10,2503.463
10,2509.445
10,2515.428
10,2521.412
10,2527.397
10,2533.382
10,2539.368
10,2545.356
10,2551.344
10,2557.333
10,2563.323
10,2569.313
10,2575.305
10,2581.297
10,2587.291
10,2593.285
10,2599.28
10,2605.276
10,2611.272
10,2617.269
10,2623.268
10,2629.267
10,2635.266
10,2641.267
10,2647.268
10,2653.27
10,2659.273
10,2665.277
10,2671.281
10,2677.286
10,2683.292
10,2689.299
10,2695.306
10,2701.314
10,2707.323
10,2713.333
10,2719.343
10,2725.354
10,2731.365
10,2737.378
10,2743.391
10,2749.405
10,2755.419
10,2761.434
10,2767.45
10,2773.467
10,2779.484
10,2785.502
10,2791.52
10,2797.539
10,2803.559
10,2809.58
10,2815.601
10,2821.622
10,2827.645
10,2833.668
10,2839.691
10,2845.716
10,2851.74
10,2857.766
10,2863.792
10,2869.819
10,2875.846
10,2881.874
10,2887.902
10,2893.931
10,2899.961
10,2905.991
10,2912.022
10,2918.053
10,2924.085
10,2930.117
10,2936.15
10,2942.184
10,2948.218
10,2954.253
10,2960.288
10,2966.324
10,2972.36
10,2978.397
10,2984.434
10,2990.472
10,2996.51
10,3002.549
10,3008.589
10,3014.629
10,3020.669
10,3026.71
10,3032.751
10,3038.793
10,3044.836
10,3050.879
10,3056.922
10,3062.966
10,3069.01
10,3075.055
10,3081.1
10,3087.146
10,3093.192
10,3099.239
10,3105.286
10,3111.334
10,3117.382
10,3123.43
10,3129.479
10,3135.529
10,3141.579
10,3147.629
10,3153.68
10,3159.731
10,3165.782
10,3171.834
10,3177.887
10,3183.94
10,3189.993
10,3196.046
10,3202.1
10,3208.155
10,3214.21
10,3220.265
10,3226.321
10,3232.377
10,3238.433
10,3244.49
10,3250.547
10,3256.605
10,3262.663
10,3268.721
10,3274.78
10,3280.839
10,3286.899
10,3292.959
10,3299.019
10,3305.08
10,3311.141
10,3317.202
10,3323.264
10,3329.326
10,3335.388
10,3341.451
10,3347.514
10,3353.577
10,3359.641
10,3365.705
10,3371.77
10,3377.835
10,3383.9
10,3389.965
10,3396.031
10,3402.097
10,3408.164
10,3414.23
10,3420.297
10,3426.365
10,3432.432
10,3438.5
10,3444.569
10,3450.637
10,3456.706