Time(s),Input,Output_Displacement
3.7,-0.304,5.102
3.8,-0.443,5.002
3.9,-0.572,4.903
4,-0.688,4.805
4.1,-0.789,4.712
4.2,-0.872,4.624
4.3,-0.935,4.545
4.4,-0.978,4.475
4.5,-0.998,4.417
4.6,-0.996,4.372
4.7,-0.972,4.341
4.8,-0.926,4.325
4.9,-0.859,4.324
5,-0.773,4.338
5.1,-0.669,4.367
5.2,-0.551,4.411
5.3,-0.420,4.468
5.4,-0.279,4.536
5.5,-0.133,4.616
5.6,0.017,4.703
5.7,0.166,4.798
5.8,0.312,4.897
5.9,0.450,4.998
5.99999999999999,0.578,5.099
6.09999999999999,0.694,5.199
6.19999999999999,0.794,5.293
6.29999999999999,0.876,5.381
6.39999999999999,0.938,5.461
6.49999999999999,0.979,5.530
6.59999999999999,0.999,5.587
6.69999999999999,0.995,5.631
6.79999999999999,0.970,5.661
6.89999999999999,0.923,5.676
6.99999999999999,0.855,5.676
7.09999999999999,0.767,5.661
7.19999999999999,0.663,5.630
7.29999999999999,0.544,5.586
7.39999999999999,0.412,5.529
7.49999999999999,0.271,5.459
7.59999999999999,0.124,5.380
7.69999999999999,-0.025,5.291
7.79999999999999,-0.174,5.197
7.89999999999999,-0.320,5.098
7.99999999999999,-0.458,4.996
8.09999999999999,-0.585,4.895
8.19999999999999,-0.700,4.796
8.29999999999999,-0.799,4.702
8.39999999999999,-0.880,4.614
8.49999999999999,-0.941,4.535
8.59999999999999,-0.981,4.467
8.69999999999999,-0.999,4.410
8.79999999999998,-0.995,4.367
8.89999999999998,-0.968,4.338
8.99999999999998,-0.919,4.323
9.09999999999998,-0.850,4.324
9.19999999999998,-0.762,4.341
9.29999999999998,-0.657,4.372
9.39999999999998,-0.537,4.417
9.49999999999998,-0.404,4.475
9.59999999999998,-0.263,4.545
9.69999999999998,-0.116,4.625
9.79999999999998,0.034,4.714
9.89999999999998,0.183,4.809
9.99999999999998,0.327,4.908
10.1,0.465,5.009
10.2,0.592,5.111
10.3,0.706,5.209
10.4,0.804,5.303
10.5,0.884,5.391
10.6,0.944,5.469
10.7,0.983,5.537
10.8,0.999,5.593
10.9,0.994,5.635
11,0.966,5.664
11.1,0.916,5.677
11.2,0.846,5.675
11.3,0.757,5.658
11.4,0.650,5.626
11.5,0.529,5.580
11.6,0.397,5.521
11.7,0.255,5.451
11.8,0.108,5.370
11.9,-0.042,5.281
12,-0.191,5.186
12.1,-0.335,5.086
12.2,-0.472,4.985
12.3,-0.599,4.884
12.4,-0.712,4.785
12.5,-0.809,4.692
12.6,-0.888,4.605
12.7,-0.946,4.527
12.8,-0.984,4.460
12.9,-1.000,4.405
13,-0.993,4.363
13.1,-0.963,4.335
13.2,-0.913,4.323
13.3,-0.841,4.326
13.4,-0.751,4.343
13.5,-0.644,4.376
13.6,-0.522,4.423
13.7,-0.389,4.482
13.8,-0.247,4.553
13.9,-0.099,4.635
14,0.050,4.724
14.1,0.199,4.820
14.2,0.343,4.919
14.3,0.480,5.021
14.4,0.606,5.122
14.5,0.718,5.220
14.6,0.814,5.314
14.7,0.891,5.400
14.8,0.949,5.477
14.9,0.986,5.544
15,1.000,5.598
15.1,0.992,5.639
15.2,0.961,5.666
15.3,0.909,5.677
15.4,0.837,5.674
15.5,0.745,5.655
15.6,0.637,5.622
15.7,0.515,5.574
15.8,0.381,5.514
15.9,0.239,5.442
16,0.091,5.361
16.1,-0.059,5.271
16.2,-0.207,5.175
16.3,-0.351,5.075
16.4,-0.487,4.973
16.5,-0.612,4.872
16.6,-0.723,4.774
16.7,-0.819,4.681
16.8,-0.895,4.596
16.9,-0.952,4.519
17,-0.987,4.453
17.1,-1.000,4.399
17.2,-0.990,4.359
17.3,-0.959,4.333
17.4,-0.906,4.322
17.5,-0.832,4.327
17.6,-0.740,4.346
17.7,-0.631,4.381
17.8,-0.508,4.429
17.9,-0.373,4.490
18,-0.231,4.562
18.1,-0.083,4.644
18.2,0.067,4.735
18.3,0.216,4.831
18.4,0.359,4.931
18.5,0.494,5.032
18.6,0.619,5.133
18.7,0.729,5.231
18.8,0.823,5.324
18.9,0.899,5.409
19,0.954,5.485
19.1,0.988,5.551
19.2,1.000,5.603
19.3,0.989,5.643
19.4,0.956,5.668
19.5,0.902,5.678
19.6,0.827,5.672
19.7,0.734,5.652
19.8,0.624,5.617
19.9,0.501,5.568
20,0.366,5.507
20.1,0.222,5.434
20.2,0.074,5.351
20.3,-0.076,5.260
20.4,-0.224,5.164
20.5,-0.367,5.064
20.6,-0.502,4.962
20.7,-0.625,4.861
20.8,-0.735,4.764
20.9,-0.828,4.671
21,-0.903,4.586
21.1,-0.957,4.511
21.2,-0.989,4.446
21.3,-1.000,4.394
21.4,-0.988,4.355
21.5,-0.954,4.331
21.6,-0.898,4.322
21.7,-0.823,4.328
21.8,-0.728,4.349
21.9,-0.618,4.385
22,-0.493,4.435
22.1,-0.358,4.497
22.2,-0.214,4.571
22.3,-0.066,4.654
22.4,0.084,4.745
22.5,0.232,4.842
22.6000000000001,0.375,4.942
22.7000000000001,0.509,5.044
22.8000000000001,0.632,5.144
22.9000000000001,0.741,5.242
23.0000000000001,0.833,5.334
23.1000000000001,0.906,5.418
23.2000000000001,0.959,5.493
23.3000000000001,0.991,5.557
23.4000000000001,1.000,5.609
23.5000000000001,0.987,5.646
23.6000000000001,0.951,5.670
23.7000000000001,0.895,5.678
23.8000000000001,0.818,5.671
23.9000000000001,0.723,5.649
24.0000000000001,0.611,5.612
24.1000000000001,0.486,5.562
24.2000000000001,0.350,5.499
24.3000000000001,0.206,5.425
24.4000000000001,0.057,5.341
24.5000000000001,-0.092,5.250
24.6000000000001,-0.240,5.153
24.7000000000001,-0.382,5.052
24.8000000000001,-0.516,4.951
24.9000000000001,-0.638,4.850
25.0000000000001,-0.746,4.753
25.1000000000001,-0.837,4.661
25.2000000000001,-0.910,4.577
25.3000000000001,-0.962,4.503
25.4000000000001,-0.992,4.440
25.5000000000001,-1.000,4.389
25.6000000000001,-0.985,4.352
25.7000000000001,-0.949,4.329
25.8000000000001,-0.891,4.322
25.9000000000001,-0.813,4.330
26.0000000000001,-0.717,4.353
26.1000000000001,-0.604,4.390
26.2000000000001,-0.479,4.441
26.3000000000001,-0.342,4.505
26.4000000000001,-0.198,4.580
26.5000000000001,-0.049,4.664
26.6000000000001,0.101,4.756
26.7000000000001,0.248,4.853
26.8000000000001,0.390,4.953
26.9000000000001,0.523,5.055
27.0000000000001,0.645,5.155
27.1000000000001,0.752,5.252
27.2000000000001,0.842,5.343
27.3000000000001,0.913,5.427
27.4000000000001,0.964,5.501
27.5000000000001,0.993,5.564
27.6000000000001,1.000,5.614
27.7000000000001,0.984,5.650
27.8000000000001,0.946,5.671
27.9000000000001,0.887,5.678
28.0000000000001,0.808,5.669
28.1000000000001,0.711,5.646
28.2000000000001,0.598,5.607
28.3000000000001,0.471,5.555
28.4000000000001,0.334,5.491
28.5000000000001,0.190,5.416
28.6000000000001,0.041,5.331
28.7000000000001,-0.109,5.239
28.8000000000001,-0.256,5.142
28.9000000000001,-0.398,5.041
29.0000000000001,-0.531,4.939
29.1000000000001,-0.651,4.839
29.2000000000001,-0.757,4.742
29.3000000000001,-0.846,4.652
29.4000000000001,-0.917,4.569
29.5000000000001,-0.966,4.495
29.6000000000002,-0.994,4.433
29.7000000000002,-0.999,4.384
29.8000000000002,-0.982,4.349
29.9000000000002,-0.943,4.328
30.0000000000002,-0.883,4.322
30.1000000000002,-0.803,4.332
30.2000000000002,-0.705,4.356
30.3000000000002,-0.591,4.395
30.4000000000002,-0.464,4.448
30.5000000000002,-0.326,4.513
30.6000000000002,-0.181,4.589
30.7000000000002,-0.032,4.674
30.8000000000002,0.117,4.766
30.9000000000002,0.265,4.864
31.0000000000002,0.406,4.965
31.1000000000002,0.538,5.066
31.2000000000002,0.658,5.166
31.3000000000002,0.763,5.263
31.4000000000002,0.851,5.353
31.5000000000002,0.920,5.436
31.6000000000002,0.968,5.508
31.7000000000002,0.995,5.570
31.8000000000002,0.999,5.618
31.9000000000002,0.981,5.653
32.0000000000002,0.940,5.673
32.1000000000002,0.879,5.678
32.2000000000002,0.798,5.667
32.3000000000002,0.699,5.642
32.4000000000002,0.584,5.602
32.5000000000002,0.456,5.549
32.6000000000002,0.318,5.483
32.7000000000002,0.173,5.407
32.8000000000002,0.024,5.321
32.9000000000002,-0.126,5.228
33.0000000000002,-0.273,5.130
33.1000000000002,-0.413,5.029
33.2000000000002,-0.545,4.928
33.3000000000002,-0.664,4.828
33.4000000000002,-0.768,4.732
33.5000000000002,-0.855,4.642
33.6000000000002,-0.923,4.560
33.7000000000002,-0.970,4.488
33.8000000000002,-0.996,4.427
33.9000000000002,-0.998,4.379
34.0000000000002,-0.979,4.346
34.1000000000002,-0.938,4.326
34.2000000000002,-0.875,4.322
34.3000000000002,-0.793,4.334
34.4000000000002,-0.693,4.360
34.5000000000002,-0.577,4.400
34.6000000000002,-0.449,4.454
34.7000000000002,-0.310,4.521
34.8000000000002,-0.165,4.598
34.9000000000002,-0.015,4.684
35.0000000000002,0.134,4.777
35.1000000000002,0.281,4.875
35.2000000000002,0.421,4.976
35.3000000000002,0.552,5.078
35.4000000000002,0.670,5.177
35.5000000000002,0.774,5.273
35.6000000000002,0.860,5.363
35.7000000000002,0.926,5.444
35.8000000000002,0.972,5.516
35.9000000000002,0.996,5.576
36.0000000000002,0.998,5.623
36.1000000000002,0.977,5.656
36.2000000000002,0.935,5.674
36.3000000000002,0.871,5.677
36.4000000000002,0.788,5.665
36.5000000000002,0.687,5.638
36.6000000000003,0.570,5.597
36.7000000000003,0.441,5.542
36.8000000000003,0.302,5.475
36.9000000000003,0.156,5.398
37.0000000000003,0.007,5.311
37.1000000000003,-0.142,5.218
37.2000000000003,-0.289,5.119
37.3000000000003,-0.429,5.018
37.4000000000003,-0.559,4.917
37.5000000000003,-0.676,4.817
37.6000000000003,-0.779,4.722
37.7000000000003,-0.864,4.632
37.8000000000003,-0.929,4.551
37.9000000000003,-0.974,4.480
38.0000000000003,-0.997,4.421
38.1000000000003,-0.997,4.375
38.2000000000003,-0.975,4.343
38.3000000000003,-0.932,4.325
38.4000000000003,-0.867,4.323
38.5000000000003,-0.782,4.336
38.6000000000003,-0.681,4.364
38.7000000000003,-0.564,4.406
38.8000000000003,-0.434,4.461
38.9000000000003,-0.294,4.529
39.0000000000003,-0.148,4.607
39.1000000000003,0.001,4.694
39.2000000000003,0.151,4.788
39.3000000000003,0.297,4.886
39.4000000000003,0.436,4.988
39.5000000000003,0.566,5.089
39.6000000000003,0.683,5.188
39.7000000000003,0.784,5.284
39.8000000000003,0.868,5.372
39.9000000000003,0.933,5.453
40.0000000000003,0.976,5.523
40.1000000000003,0.998,5.582
40.2000000000003,0.997,5.627
40.3000000000003,0.974,5.659
40.4000000000003,0.928,5.675
40.5000000000003,0.863,5.677
40.6000000000003,0.777,5.663
40.7000000000003,0.674,5.634
40.8000000000003,0.557,5.591
40.9000000000003,0.426,5.535
41.0000000000003,0.286,5.467
41.1000000000003,0.140,5.388
41.2000000000003,-0.010,5.301
41.3000000000003,-0.159,5.207
41.4000000000003,-0.305,5.108
41.5000000000003,-0.444,5.007
41.6000000000003,-0.573,4.905
41.7000000000003,-0.689,4.806
41.8000000000003,-0.789,4.711
41.9000000000003,-0.872,4.623
42.0000000000003,-0.936,4.543
42.1000000000003,-0.978,4.473
42.2000000000003,-0.998,4.415
42.3000000000003,-0.996,4.371
42.4000000000003,-0.972,4.340
42.5000000000003,-0.925,4.324
42.6000000000003,-0.858,4.324
42.7000000000003,-0.772,4.338
42.8000000000003,-0.668,4.368
42.9000000000003,-0.550,4.411
43.0000000000003,-0.419,4.468
43.1000000000003,-0.278,4.537
43.2000000000003,-0.131,4.616
43.3000000000003,0.018,4.704
43.4000000000003,0.167,4.799
43.5000000000003,0.313,4.898
43.6000000000003,0.451,4.999
43.7000000000004,0.580,5.100
43.8000000000004,0.695,5.199
43.9000000000004,0.794,5.294
44.0000000000004,0.876,5.382
44.1000000000004,0.938,5.461
44.2000000000004,0.980,5.530
44.3000000000004,0.999,5.588
44.4000000000004,0.995,5.632
44.5000000000004,0.970,5.661
44.6000000000004,0.922,5.676
44.7000000000004,0.854,5.676
44.8000000000004,0.767,5.660
44.9000000000004,0.662,5.630
45.0000000000004,0.543,5.586
45.1000000000004,0.411,5.528
45.2000000000004,0.270,5.459
45.3000000000004,0.123,5.379
45.4000000000004,-0.027,5.291
45.5000000000004,-0.176,5.196
45.6000000000004,-0.321,5.097
45.7000000000004,-0.459,4.995
45.8000000000004,-0.586,4.894
45.9000000000004,-0.701,4.795
46.0000000000004,-0.800,4.701
46.1000000000004,-0.880,4.613
46.2000000000004,-0.941,4.534
46.3000000000004,-0.981,4.466
46.4000000000004,-0.999,4.410
46.5000000000004,-0.994,4.366
46.6000000000004,-0.967,4.338
46.7000000000004,-0.919,4.323
46.8000000000004,-0.850,4.325
46.9000000000004,-0.761,4.341
47.0000000000004,-0.656,4.372
47.1000000000004,-0.535,4.417
47.2000000000004,-0.403,4.475
47.3000000000004,-0.262,4.546
47.4000000000004,-0.115,4.626
47.5000000000004,0.035,4.715
47.6000000000004,0.184,4.810
47.7000000000004,0.329,4.909
47.8000000000004,0.466,5.010
47.9000000000004,0.593,5.112
48.0000000000004,0.707,5.210
48.1000000000004,0.805,5.304
48.2000000000004,0.884,5.391
48.3000000000004,0.944,5.470
48.4000000000004,0.983,5.537
48.5000000000004,0.999,5.593
48.6000000000004,0.993,5.636
48.7000000000004,0.965,5.664
48.8000000000004,0.915,5.677
48.9000000000004,0.845,5.675
49.0000000000004,0.756,5.658
49.1000000000004,0.649,5.626
49.2000000000004,0.528,5.580
49.3000000000004,0.396,5.521
49.4000000000004,0.254,5.450
49.5000000000004,0.106,5.369
49.6000000000004,-0.043,5.280
49.7000000000004,-0.192,5.185
49.8000000000004,-0.337,5.085
49.9000000000004,-0.474,4.984
50.0000000000004,-0.600,4.883
50.1000000000004,-0.713,4.784
50.2000000000004,-0.810,4.691
50.3000000000004,-0.888,4.604
50.4000000000004,-0.947,4.526
50.5000000000004,-0.984,4.459
50.6000000000004,-1.000,4.404
50.7000000000005,-0.992,4.362
50.8000000000005,-0.963,4.335
50.9000000000005,-0.912,4.323
51.0000000000005,-0.841,4.326
51.1000000000005,-0.750,4.344
51.2000000000005,-0.643,4.376
51.3000000000005,-0.521,4.423
51.4000000000005,-0.388,4.483
51.5000000000005,-0.246,4.554
51.6000000000005,-0.098,4.635
51.7000000000005,0.052,4.725
51.8000000000005,0.200,4.821
51.9000000000005,0.345,4.920
52.0000000000005,0.481,5.022
52.1000000000005,0.607,5.123
52.2000000000005,0.719,5.221
52.3000000000005,0.814,5.314
52.4000000000005,0.892,5.401
52.5000000000005,0.950,5.478
52.6000000000005,0.986,5.544
52.7000000000005,1.000,5.599
52.8000000000005,0.991,5.639
52.9000000000005,0.961,5.666
53.0000000000005,0.909,5.677
53.1000000000005,0.836,5.674
53.2000000000005,0.745,5.655
53.3000000000005,0.636,5.621
53.4000000000005,0.514,5.574
53.5000000000005,0.380,5.514
53.6000000000005,0.238,5.442
53.7000000000005,0.090,5.360
53.8000000000005,-0.060,5.270
53.9000000000005,-0.209,5.174
54.0000000000005,-0.352,5.074
54.1000000000005,-0.488,4.973
54.2000000000005,-0.613,4.872
54.3000000000005,-0.724,4.774
54.4000000000005,-0.819,4.681
54.5000000000005,-0.896,4.595
54.6000000000005,-0.952,4.518
54.7000000000005,-0.987,4.452
54.8000000000005,-1.000,4.399
54.9000000000005,-0.990,4.359
55.0000000000005,-0.958,4.333
55.1000000000005,-0.905,4.322
55.2000000000005,-0.831,4.327
55.3000000000005,-0.739,4.347
55.4000000000005,-0.630,4.381
55.5000000000005,-0.507,4.429
55.6000000000005,-0.372,4.490
55.7000000000005,-0.229,4.563
55.8000000000005,-0.081,4.645
55.9000000000005,0.069,4.735
56.0000000000005,0.217,4.832
56.1000000000005,0.360,4.932
56.2000000000005,0.496,5.033
56.3000000000005,0.620,5.134
56.4000000000005,0.730,5.232
56.5000000000005,0.824,5.324
56.6000000000005,0.899,5.410
56.7000000000005,0.955,5.486
56.8000000000005,0.988,5.551
56.9000000000005,1.000,5.604
57.0000000000005,0.989,5.643
57.1000000000005,0.956,5.668
57.2000000000005,0.901,5.678
57.3000000000005,0.827,5.672
57.4000000000005,0.733,5.652
57.5000000000005,0.623,5.617
57.6000000000005,0.499,5.568
57.7000000000005,0.364,5.506
57.8000000000006,0.221,5.433
57.9000000000006,0.073,5.350
58.0000000000006,-0.077,5.259
58.1000000000006,-0.225,5.163
58.2000000000006,-0.368,5.063
58.3000000000006,-0.503,4.961
58.4000000000006,-0.626,4.860
58.5000000000006,-0.736,4.763
58.6000000000006,-0.829,4.671
58.7000000000006,-0.903,4.586
58.8000000000006,-0.957,4.510
58.9000000000006,-0.990,4.446
59.0000000000006,-1.000,4.394
59.1000000000006,-0.988,4.355
59.2000000000006,-0.953,4.331
59.3000000000006,-0.898,4.322
59.4000000000006,-0.822,4.328
59.5000000000006,-0.727,4.350
59.6000000000006,-0.617,4.386
59.7000000000006,-0.492,4.435
59.8000000000006,-0.357,4.498
59.9000000000006,-0.213,4.571
60.0000000000006,-0.065,4.655
60.1000000000006,0.085,4.746
60.2000000000006,0.233,4.843
60.3000000000006,0.376,4.943
60.4000000000006,0.510,5.045
60.5000000000006,0.633,5.145
60.6000000000006,0.742,5.242
60.7000000000006,0.833,5.334
60.8000000000006,0.907,5.419
60.9000000000006,0.960,5.494
61.0000000000006,0.991,5.558
61.1000000000006,1.000,5.609
61.2000000000006,0.986,5.647
61.3000000000006,0.951,5.670
61.4000000000006,0.894,5.678
61.5000000000006,0.817,5.671
61.6000000000006,0.722,5.649
61.7000000000006,0.610,5.612
61.8000000000006,0.485,5.561
61.9000000000006,0.349,5.498
62.0000000000006,0.205,5.424
62.1000000000006,0.056,5.340
62.2000000000006,-0.094,5.249
62.3000000000006,-0.241,5.152
62.4000000000006,-0.384,5.051
62.5000000000006,-0.517,4.950
62.6000000000006,-0.639,4.849
62.7000000000006,-0.747,4.752
62.8000000000006,-0.838,4.661
62.9000000000006,-0.910,4.577
63.0000000000006,-0.962,4.502
63.1000000000006,-0.992,4.439
63.2000000000006,-1.000,4.389
63.3000000000006,-0.985,4.352
63.4000000000006,-0.948,4.329
63.5000000000006,-0.890,4.322
63.6000000000006,-0.812,4.330
63.7000000000006,-0.716,4.353
63.8000000000006,-0.603,4.391
63.9000000000006,-0.477,4.442
64.0000000000006,-0.341,4.506
64.1000000000006,-0.196,4.580
64.2000000000006,-0.048,4.665
64.3000000000006,0.102,4.756
64.4000000000006,0.250,4.854
64.5000000000006,0.391,4.954
64.6000000000006,0.525,5.056
64.7000000000006,0.646,5.156
64.8000000000006,0.753,5.253
64.9000000000006,0.843,5.344
65.0000000000006,0.914,5.428
65.1000000000006,0.964,5.501
65.2000000000006,0.993,5.564
65.3000000000006,1.000,5.614
65.4000000000006,0.984,5.650
65.5000000000006,0.946,5.671
65.6000000000005,0.886,5.678
65.7000000000005,0.807,5.669
65.8000000000005,0.710,5.645
65.9000000000005,0.597,5.607
66.0000000000005,0.470,5.555
66.1000000000005,0.333,5.491
66.2000000000005,0.188,5.415
66.3000000000005,0.039,5.330
66.4000000000005,-0.110,5.238
66.5000000000005,-0.258,5.141
66.6000000000005,-0.399,5.040
66.7000000000005,-0.532,4.938
66.8000000000005,-0.652,4.838
66.9000000000005,-0.758,4.742
67.0000000000005,-0.847,4.651
67.1000000000005,-0.917,4.568
67.2000000000005,-0.966,4.495
67.3000000000005,-0.994,4.433
67.4000000000004,-0.999,4.384
67.5000000000004,-0.982,4.348
67.6000000000004,-0.943,4.328
67.7000000000004,-0.882,4.322
67.8000000000004,-0.802,4.332
67.9000000000004,-0.704,4.357
68.0000000000004,-0.590,4.396
68.1000000000004,-0.463,4.448
68.2000000000004,-0.325,4.513
68.3000000000004,-0.180,4.589
68.4000000000004,-0.031,4.675
68.5000000000004,0.119,4.767
68.6000000000004,0.266,4.865
68.7000000000004,0.407,4.966
68.8000000000004,0.539,5.067
68.9000000000004,0.659,5.167
69.0000000000004,0.764,5.264
69.1000000000003,0.852,5.354
69.2000000000003,0.920,5.436
69.3000000000003,0.968,5.509
69.4000000000003,0.995,5.570
69.5000000000003,0.999,5.619
69.6000000000003,0.980,5.653
69.7000000000003,0.940,5.673
69.8000000000003,0.878,5.678
69.9000000000003,0.797,5.667
70.0000000000003,0.698,5.642
70.1000000000003,0.583,5.602
70.2000000000003,0.455,5.548
70.3000000000003,0.317,5.483
70.4000000000003,0.172,5.406
70.5000000000003,0.023,5.320
70.6000000000003,-0.127,5.227
70.7000000000003,-0.274,5.129
70.8000000000003,-0.415,5.029
70.9000000000002,-0.546,4.927
71.0000000000002,-0.665,4.827
71.1000000000002,-0.769,4.731
71.2000000000002,-0.856,4.641
71.3000000000002,-0.924,4.559
71.4000000000002,-0.971,4.487
71.5000000000002,-0.996,4.427
71.6000000000002,-0.998,4.379
71.7000000000002,-0.979,4.345
71.8000000000002,-0.937,4.326
71.9000000000002,-0.874,4.323
72.0000000000002,-0.792,4.334
72.1000000000002,-0.692,4.360
72.2000000000002,-0.576,4.401
72.3000000000002,-0.448,4.455
72.4000000000002,-0.309,4.521
72.5000000000002,-0.163,4.599
72.6000000000002,-0.014,4.685
72.7000000000001,0.135,4.778
72.8000000000001,0.282,4.876
72.9000000000001,0.422,4.977
73.0000000000001,0.553,5.079
73.1000000000001,0.671,5.178
73.2000000000001,0.774,5.274
73.3000000000001,0.860,5.364
73.4000000000001,0.927,5.445
73.5000000000001,0.973,5.517
73.6000000000001,0.996,5.576
73.7000000000001,0.998,5.623
73.8000000000001,0.977,5.656
73.9000000000001,0.934,5.674
74.0000000000001,0.870,5.677
74.1000000000001,0.787,5.665
74.2000000000001,0.686,5.638
74.3000000000001,0.569,5.596
74.4,0.440,5.542
74.5,0.301,5.475
74.6,0.155,5.397
74.7,0.006,5.310
74.8,-0.144,5.217
74.9,-0.290,5.118
75,-0.430,5.017
75.1,-0.560,4.916
75.2,-0.677,4.816
75.3,-0.780,4.721
75.4,-0.865,4.632
75.5,-0.930,4.551
75.6,-0.974,4.480
75.7,-0.997,4.421
75.8,-0.997,4.375
75.9,-0.975,4.342
76,-0.931,4.325
76.1,-0.866,4.323
76.1999999999999,-0.782,4.336
76.2999999999999,-0.680,4.364
76.3999999999999,-0.562,4.406
76.4999999999999,-0.433,4.462
76.5999999999999,-0.293,4.530
76.6999999999999,-0.147,4.608
76.7999999999999,0.003,4.695
76.8999999999999,0.152,4.789
76.9999999999999,0.298,4.887
77.0999999999999,0.437,4.989
77.1999999999999,0.567,5.090
77.2999999999999,0.684,5.189
77.3999999999999,0.785,5.284
77.4999999999999,0.869,5.373
77.5999999999999,0.933,5.454
77.6999999999999,0.976,5.524
77.7999999999999,0.998,5.582
77.8999999999998,0.997,5.628
77.9999999999998,0.973,5.659
78.0999999999998,0.928,5.675
78.1999999999998,0.862,5.677
