Time(s),Input,Output_Displacement
3,0.968,4.731
3.1,0.989,5.041
3.2,0.855,5.345
3.3,0.585,5.594
3.4,0.223,5.750
3.5,-0.174,5.787
3.6,-0.544,5.701
3.7,-0.828,5.504
3.8,-0.981,5.227
3.9,-0.979,4.915
4,-0.823,4.616
4.1,-0.537,4.377
4.2,-0.166,4.237
4.3,0.232,4.217
4.4,0.592,4.321
4.5,0.859,4.532
4.6,0.991,4.817
4.7,0.966,5.131
4.8,0.788,5.424
4.9,0.486,5.650
5,0.108,5.774
5.1,-0.288,5.775
5.2,-0.638,5.654
5.3,-0.888,5.430
5.4,-0.997,5.138
5.5,-0.949,4.824
5.6,-0.751,4.538
5.7,-0.435,4.325
5.8,-0.050,4.218
5.9,0.343,4.235
5.99999999999999,0.682,4.373
6.09999999999999,0.913,4.610
6.19999999999999,1.000,4.908
6.29999999999999,0.929,5.221
6.39999999999999,0.711,5.499
6.49999999999999,0.381,5.698
6.59999999999999,-0.009,5.787
6.69999999999999,-0.398,5.752
6.79999999999999,-0.723,5.598
6.89999999999999,-0.935,5.350
6.99999999999999,-0.999,5.046
7.09999999999999,-0.906,4.735
7.19999999999999,-0.669,4.466
7.29999999999999,-0.327,4.282
7.39999999999999,0.067,4.210
7.49999999999999,0.450,4.264
7.59999999999999,0.763,4.433
7.69999999999999,0.954,4.692
7.79999999999999,0.995,5.000
7.89999999999999,0.879,5.308
7.99999999999999,0.624,5.567
8.09999999999999,0.271,5.736
8.19999999999999,-0.125,5.790
8.29999999999999,-0.502,5.719
8.39999999999999,-0.799,5.534
8.49999999999999,-0.970,5.265
8.59999999999999,-0.988,4.954
8.69999999999999,-0.850,4.650
8.79999999999998,-0.578,4.402
8.89999999999998,-0.214,4.248
8.99999999999998,0.183,4.213
9.09999999999998,0.551,4.302
9.19999999999998,0.833,4.501
9.29999999999998,0.983,4.779
9.39999999999998,0.977,5.092
9.49999999999998,0.818,5.390
9.59999999999998,0.529,5.627
9.69999999999998,0.157,5.765
9.79999999999998,-0.240,5.782
9.89999999999998,-0.599,5.675
9.99999999999998,-0.864,5.462
10.1,-0.992,5.176
10.2,-0.963,4.862
10.3,-0.783,4.570
10.4,-0.479,4.346
10.5,-0.099,4.225
10.6,0.296,4.226
10.7,0.645,4.350
10.8,0.892,4.576
10.9,0.998,4.869
11,0.946,5.183
11.1,0.745,5.468
11.2,0.427,5.679
11.3,0.041,5.783
11.4,-0.352,5.763
11.5,-0.688,5.623
11.6,-0.917,5.384
11.7,-1.000,5.085
11.8,-0.925,4.773
11.9,-0.705,4.496
12,-0.373,4.299
12.1,0.018,4.212
12.2,0.406,4.250
12.3,0.730,4.407
12.4,0.938,4.657
12.5,0.999,4.961
12.6,0.902,5.271
12.7,0.662,5.539
12.8,0.318,5.721
12.9,-0.076,5.790
13,-0.458,5.734
13.1,-0.768,5.562
13.2,-0.957,5.301
13.3,-0.994,4.993
13.4,-0.875,4.686
13.5,-0.617,4.428
13.6,-0.262,4.261
13.7,0.134,4.210
13.8,0.509,4.284
13.9,0.804,4.471
14,0.972,4.742
14.1,0.987,5.053
14.2,0.845,5.356
14.3,0.570,5.602
14.4,0.206,5.754
14.5,-0.192,5.786
14.6,-0.559,5.695
14.7,-0.838,5.493
14.8,-0.984,5.214
14.9,-0.975,4.901
15,-0.813,4.604
15.1,-0.522,4.369
15.2,-0.148,4.233
15.3,0.249,4.219
15.4,0.606,4.328
15.5,0.868,4.543
15.6,0.993,4.831
15.7,0.961,5.145
15.8,0.777,5.436
15.9,0.471,5.658
16,0.090,5.776
16.1,-0.305,5.772
16.2,-0.652,5.646
16.3,-0.896,5.418
16.4,-0.998,5.124
16.5,-0.943,4.810
16.6,-0.739,4.527
16.7,-0.419,4.318
16.8,-0.032,4.216
16.9,0.360,4.239
17,0.695,4.381
17.1,0.920,4.622
17.2,1.000,4.922
17.3,0.922,5.234
17.4,0.699,5.510
17.5,0.365,5.704
17.6,-0.027,5.788
17.7,-0.414,5.748
17.8,-0.736,5.589
17.9,-0.941,5.337
18,-0.998,5.032
18.1,-0.898,4.722
18.2,-0.656,4.456
18.3,-0.310,4.276
18.4,0.085,4.210
18.5,0.466,4.269
18.6,0.774,4.443
18.7,0.959,4.705
18.8,0.993,5.014
18.9,0.871,5.320
19,0.610,5.576
19.1,0.254,5.741
19.2,-0.143,5.789
19.3,-0.517,5.713
19.4,-0.810,5.523
19.5,-0.974,5.252
19.6,-0.985,4.940
19.7,-0.841,4.638
19.8,-0.563,4.393
19.9,-0.197,4.244
20,0.200,4.214
20.1,0.566,4.309
20.2,0.842,4.512
20.3,0.986,4.793
20.4,0.973,5.106
20.5,0.807,5.402
20.6,0.514,5.635
20.7,0.139,5.768
20.8,-0.257,5.780
20.9,-0.613,5.668
21,-0.872,5.451
21.1,-0.994,5.163
21.2,-0.958,4.849
21.3,-0.772,4.559
21.4,-0.463,4.338
21.5,-0.081,4.222
21.6,0.313,4.229
21.7,0.658,4.358
21.8,0.899,4.588
21.9,0.999,4.883
22,0.940,5.196
22.1,0.733,5.479
22.2,0.410,5.686
22.3,0.023,5.785
22.4,-0.368,5.759
22.5,-0.701,5.614
22.6000000000001,-0.923,5.372
22.7000000000001,-1.000,5.071
22.8000000000001,-0.919,4.759
22.9000000000001,-0.692,4.485
23.0000000000001,-0.357,4.292
23.1000000000001,0.035,4.211
23.2000000000001,0.422,4.255
23.3000000000001,0.742,4.416
23.4000000000001,0.944,4.669
23.5000000000001,0.998,4.975
23.6000000000001,0.894,5.284
23.7000000000001,0.649,5.549
23.8000000000001,0.301,5.727
23.9000000000001,-0.094,5.790
24.0000000000001,-0.474,5.729
24.1000000000001,-0.779,5.552
24.2000000000001,-0.962,5.288
24.3000000000001,-0.992,4.979
24.4000000000001,-0.866,4.673
24.5000000000001,-0.603,4.419
24.6000000000001,-0.245,4.256
24.7000000000001,0.152,4.211
24.8000000000001,0.525,4.290
24.9000000000001,0.815,4.482
25.0000000000001,0.976,4.755
25.1000000000001,0.984,5.067
25.2000000000001,0.836,5.368
25.3000000000001,0.556,5.611
25.4000000000001,0.188,5.758
25.5000000000001,-0.209,5.785
25.6000000000001,-0.573,5.688
25.7000000000001,-0.847,5.482
25.8000000000001,-0.987,5.201
25.9000000000001,-0.971,4.887
26.0000000000001,-0.802,4.592
26.1000000000001,-0.506,4.360
26.2000000000001,-0.131,4.230
26.3000000000001,0.266,4.222
26.4000000000001,0.620,4.336
26.5000000000001,0.877,4.555
26.6000000000001,0.995,4.844
26.7000000000001,0.956,5.158
26.8000000000001,0.766,5.447
26.9000000000001,0.455,5.666
27.0000000000001,0.072,5.779
27.1000000000001,-0.322,5.769
27.2000000000001,-0.665,5.638
27.3000000000001,-0.903,5.406
27.4000000000001,-0.999,5.110
27.5000000000001,-0.937,4.797
27.6000000000001,-0.727,4.515
27.7000000000001,-0.402,4.311
27.8000000000001,-0.014,4.215
27.9000000000001,0.376,4.243
28.0000000000001,0.707,4.390
28.1000000000001,0.927,4.634
28.2000000000001,1.000,4.936
28.3000000000001,0.915,5.247
28.4000000000001,0.686,5.520
28.5000000000001,0.348,5.711
28.6000000000001,-0.044,5.789
28.7000000000001,-0.430,5.743
28.8000000000001,-0.747,5.579
28.9000000000001,-0.947,5.324
29.0000000000001,-0.997,5.018
29.1000000000001,-0.890,4.709
29.2000000000001,-0.642,4.446
29.3000000000001,-0.293,4.270
29.4000000000001,0.102,4.210
29.5000000000001,0.482,4.274
29.6000000000002,0.785,4.453
29.7000000000002,0.964,4.718
29.8000000000002,0.991,5.028
29.9000000000002,0.862,5.333
30.0000000000002,0.596,5.586
30.1000000000002,0.237,5.746
30.2000000000002,-0.160,5.789
30.3000000000002,-0.532,5.706
30.4000000000002,-0.820,5.513
30.5000000000002,-0.978,5.238
30.6000000000002,-0.982,4.926
30.7000000000002,-0.831,4.626
30.8000000000002,-0.548,4.384
30.9000000000002,-0.180,4.240
31.0000000000002,0.218,4.216
31.1000000000002,0.581,4.315
31.2000000000002,0.852,4.523
31.3000000000002,0.989,4.806
31.4000000000002,0.969,5.120
31.5000000000002,0.797,5.414
31.6000000000002,0.499,5.644
31.7000000000002,0.122,5.771
31.8000000000002,-0.274,5.777
31.9000000000002,-0.627,5.660
32.0000000000002,-0.881,5.439
32.1000000000002,-0.996,5.149
32.2000000000002,-0.953,4.835
32.3000000000002,-0.760,4.547
32.4000000000002,-0.447,4.331
32.5000000000002,-0.064,4.220
32.6000000000002,0.330,4.232
32.7000000000002,0.672,4.366
32.8000000000002,0.907,4.600
32.9000000000002,0.999,4.897
33.0000000000002,0.934,5.210
33.1000000000002,0.721,5.490
33.2000000000002,0.394,5.693
33.3000000000002,0.005,5.786
33.4000000000002,-0.385,5.755
33.5000000000002,-0.714,5.605
33.6000000000002,-0.930,5.360
33.7000000000002,-1.000,5.057
33.8000000000002,-0.911,4.746
33.9000000000002,-0.679,4.475
34.0000000000002,-0.340,4.286
34.1000000000002,0.053,4.211
34.2000000000002,0.438,4.260
34.3000000000002,0.753,4.425
34.4000000000002,0.950,4.682
34.5000000000002,0.997,4.989
34.6000000000002,0.886,5.297
34.7000000000002,0.635,5.559
34.8000000000002,0.284,5.732
34.9000000000002,-0.111,5.790
35.0000000000002,-0.489,5.723
35.1000000000002,-0.790,5.542
35.2000000000002,-0.967,5.275
35.3000000000002,-0.990,4.965
35.4000000000002,-0.857,4.660
35.5000000000002,-0.589,4.409
35.6000000000002,-0.228,4.252
35.7000000000002,0.169,4.212
35.8000000000002,0.540,4.297
35.9000000000002,0.825,4.493
36.0000000000002,0.980,4.768
36.1000000000002,0.980,5.081
36.2000000000002,0.826,5.381
36.3000000000002,0.541,5.620
36.4000000000002,0.171,5.762
36.5000000000002,-0.226,5.783
36.6000000000003,-0.588,5.681
36.7000000000003,-0.856,5.471
36.8000000000003,-0.990,5.187
36.9000000000003,-0.967,4.873
37.0000000000003,-0.792,4.580
37.1000000000003,-0.491,4.352
37.2000000000003,-0.113,4.227
37.3000000000003,0.283,4.224
37.4000000000003,0.634,4.344
37.5000000000003,0.885,4.567
37.6000000000003,0.996,4.858
37.7000000000003,0.951,5.172
37.8000000000003,0.754,5.459
37.9000000000003,0.439,5.673
38.0000000000003,0.055,5.781
38.1000000000003,-0.338,5.766
38.2000000000003,-0.678,5.630
38.3000000000003,-0.911,5.394
38.4000000000003,-1.000,5.096
38.5000000000003,-0.931,4.783
38.6000000000003,-0.715,4.505
38.7000000000003,-0.386,4.304
38.8000000000003,0.004,4.213
38.9000000000003,0.393,4.247
39.0000000000003,0.720,4.399
39.1000000000003,0.933,4.647
39.2000000000003,0.999,4.950
39.3000000000003,0.908,5.261
39.4000000000003,0.673,5.531
39.5000000000003,0.332,5.717
39.6000000000003,-0.062,5.790
39.7000000000003,-0.446,5.738
39.8000000000003,-0.759,5.570
39.9000000000003,-0.953,5.312
40.0000000000003,-0.996,5.004
40.1000000000003,-0.882,4.696
40.2000000000003,-0.629,4.436
40.3000000000003,-0.276,4.265
40.4000000000003,0.120,4.210
40.5000000000003,0.497,4.280
40.6000000000003,0.796,4.463
40.7000000000003,0.969,4.731
40.8000000000003,0.989,5.042
40.9000000000003,0.853,5.346
41.0000000000003,0.582,5.595
41.1000000000003,0.219,5.751
41.2000000000003,-0.178,5.787
41.3000000000003,-0.547,5.700
41.4000000000003,-0.830,5.502
41.5000000000003,-0.982,5.225
41.6000000000003,-0.978,4.912
41.7000000000003,-0.821,4.613
41.8000000000003,-0.534,4.375
41.9000000000003,-0.162,4.236
42.0000000000003,0.235,4.218
42.1000000000003,0.595,4.323
42.2000000000003,0.861,4.534
42.3000000000003,0.991,4.820
42.4000000000003,0.965,5.134
42.5000000000003,0.786,5.426
42.6000000000003,0.483,5.652
42.7000000000003,0.104,5.774
42.8000000000003,-0.291,5.775
42.9000000000003,-0.641,5.653
43.0000000000003,-0.889,5.428
43.1000000000003,-0.997,5.135
43.2000000000003,-0.948,4.821
43.3000000000003,-0.749,4.536
43.4000000000003,-0.431,4.323
43.5000000000003,-0.046,4.218
43.6000000000003,0.347,4.236
43.7000000000004,0.685,4.375
43.8000000000004,0.914,4.612
43.9000000000004,1.000,4.911
44.0000000000004,0.927,5.223
44.1000000000004,0.709,5.501
44.2000000000004,0.378,5.699
44.3000000000004,-0.012,5.787
44.4000000000004,-0.401,5.751
44.5000000000004,-0.726,5.596
44.6000000000004,-0.936,5.347
44.7000000000004,-0.999,5.043
44.8000000000004,-0.904,4.733
44.9000000000004,-0.666,4.464
45.0000000000004,-0.323,4.280
45.1000000000004,0.071,4.210
45.2000000000004,0.454,4.265
45.3000000000004,0.765,4.435
45.4000000000004,0.955,4.695
45.5000000000004,0.995,5.003
45.6000000000004,0.878,5.310
45.7000000000004,0.622,5.569
45.8000000000004,0.267,5.737
45.9000000000004,-0.129,5.790
46.0000000000004,-0.505,5.717
46.1000000000004,-0.801,5.532
46.2000000000004,-0.971,5.262
46.3000000000004,-0.987,4.951
46.4000000000004,-0.848,4.648
46.5000000000004,-0.575,4.400
46.6000000000004,-0.211,4.247
46.7000000000004,0.187,4.213
46.8000000000004,0.554,4.303
46.9000000000004,0.835,4.503
47.0000000000004,0.983,4.782
47.1000000000004,0.977,5.095
47.2000000000004,0.816,5.393
47.3000000000004,0.526,5.629
47.4000000000004,0.153,5.765
47.5000000000004,-0.244,5.781
47.6000000000004,-0.602,5.674
47.7000000000004,-0.865,5.460
47.8000000000004,-0.992,5.173
47.9000000000004,-0.962,4.860
48.0000000000004,-0.781,4.568
48.1000000000004,-0.476,4.344
48.2000000000004,-0.095,4.224
48.3000000000004,0.300,4.227
48.4000000000004,0.648,4.351
48.5000000000004,0.893,4.578
48.6000000000004,0.998,4.872
48.7000000000004,0.945,5.186
48.8000000000004,0.743,5.470
48.9000000000004,0.423,5.680
49.0000000000004,0.037,5.783
49.1000000000004,-0.355,5.762
49.2000000000004,-0.691,5.621
49.3000000000004,-0.918,5.382
