Time(s),Input,Output_Displacement
4,0.908,5.631
4.1,0.876,5.621
4.2,0.840,5.606
4.3,0.799,5.589
4.4,0.754,5.568
4.5,0.705,5.544
4.6,0.652,5.517
4.7,0.596,5.488
4.8,0.538,5.456
4.9,0.476,5.422
5,0.412,5.386
5.1,0.346,5.348
5.2,0.278,5.308
5.3,0.209,5.267
5.4,0.138,5.224
5.5,0.067,5.180
5.6,-0.004,5.135
5.7,-0.076,5.090
5.8,-0.147,5.044
5.9,-0.217,4.998
5.99999999999999,-0.286,4.951
6.09999999999999,-0.354,4.906
6.19999999999999,-0.420,4.860
6.29999999999999,-0.484,4.815
6.39999999999999,-0.545,4.772
6.49999999999999,-0.604,4.729
6.59999999999999,-0.659,4.688
6.69999999999999,-0.711,4.648
6.79999999999999,-0.759,4.610
6.89999999999999,-0.804,4.574
6.99999999999999,-0.844,4.541
7.09999999999999,-0.880,4.509
7.19999999999999,-0.912,4.481
7.29999999999999,-0.939,4.455
7.39999999999999,-0.961,4.431
7.49999999999999,-0.978,4.411
7.59999999999999,-0.991,4.393
7.69999999999999,-0.998,4.379
7.79999999999999,-1.000,4.368
7.89999999999999,-0.997,4.360
7.99999999999999,-0.989,4.355
8.09999999999999,-0.976,4.354
8.19999999999999,-0.957,4.356
8.29999999999999,-0.934,4.361
8.39999999999999,-0.907,4.369
8.49999999999999,-0.874,4.381
8.59999999999999,-0.837,4.396
8.69999999999999,-0.796,4.414
8.79999999999998,-0.751,4.435
8.89999999999998,-0.702,4.459
8.99999999999998,-0.649,4.485
9.09999999999998,-0.593,4.514
9.19999999999998,-0.534,4.546
9.29999999999998,-0.472,4.580
9.39999999999998,-0.408,4.616
9.49999999999998,-0.342,4.655
9.59999999999998,-0.274,4.694
9.69999999999998,-0.204,4.736
9.79999999999998,-0.134,4.779
9.89999999999998,-0.063,4.823
9.99999999999998,0.009,4.868
10.1,0.080,4.913
10.2,0.151,4.959
10.3,0.221,5.005
10.4,0.291,5.051
10.5,0.358,5.097
10.6,0.424,5.143
10.7,0.488,5.187
10.8,0.549,5.231
10.9,0.607,5.274
11,0.662,5.315
11.1,0.714,5.354
11.2,0.762,5.392
11.3,0.807,5.428
11.4,0.847,5.461
11.5,0.883,5.492
11.6,0.914,5.521
11.7,0.941,5.547
11.8,0.962,5.570
11.9,0.979,5.590
12,0.991,5.608
12.1,0.998,5.622
12.2,1.000,5.633
12.3,0.997,5.641
12.4,0.988,5.645
12.5,0.975,5.646
12.6,0.956,5.644
12.7,0.933,5.639
12.8,0.905,5.630
12.9,0.872,5.618
13,0.835,5.603
13.1,0.793,5.585
13.2,0.748,5.564
13.3,0.698,5.540
13.4,0.646,5.513
13.5,0.589,5.484
13.6,0.530,5.452
13.7,0.468,5.418
13.8,0.404,5.381
13.9,0.338,5.343
14,0.269,5.303
14.1,0.200,5.261
14.2,0.129,5.219
14.3,0.058,5.175
14.4,-0.013,5.130
14.5,-0.085,5.084
14.6,-0.156,5.038
14.7,-0.226,4.992
14.8,-0.295,4.946
14.9,-0.362,4.900
15,-0.428,4.855
15.1,-0.491,4.810
15.2,-0.552,4.766
15.3,-0.611,4.724
15.4,-0.666,4.683
15.5,-0.717,4.643
15.6,-0.765,4.606
15.7,-0.809,4.570
15.8,-0.849,4.537
15.9,-0.885,4.506
16,-0.916,4.477
16.1,-0.942,4.451
16.2,-0.964,4.428
16.3,-0.980,4.408
16.4,-0.992,4.391
16.5,-0.998,4.377
16.6,-1.000,4.367
16.7,-0.996,4.359
16.8,-0.987,4.355
16.9,-0.974,4.354
17,-0.955,4.356
17.1,-0.931,4.362
17.2,-0.903,4.371
17.3,-0.870,4.383
17.4,-0.832,4.398
17.5,-0.791,4.416
17.6,-0.745,4.438
17.7,-0.695,4.462
17.8,-0.642,4.489
17.9,-0.586,4.518
18,-0.526,4.550
18.1,-0.464,4.585
18.2,-0.400,4.621
18.3,-0.333,4.659
18.4,-0.265,4.700
18.5,-0.196,4.741
18.6,-0.125,4.784
18.7,-0.054,4.828
18.8,0.018,4.873
18.9,0.089,4.919
19,0.160,4.965
19.1,0.230,5.011
19.2,0.299,5.057
19.3,0.366,5.103
19.4,0.432,5.148
19.5,0.495,5.193
19.6,0.556,5.236
19.7,0.614,5.279
19.8,0.669,5.320
19.9,0.720,5.359
20,0.768,5.396
20.1,0.812,5.432
20.2,0.851,5.465
20.3,0.887,5.496
20.4,0.917,5.524
20.5,0.944,5.550
20.6,0.965,5.573
20.7,0.981,5.593
20.8,0.992,5.610
20.9,0.999,5.623
21,1.000,5.634
21.1,0.996,5.641
21.2,0.987,5.645
21.3,0.973,5.646
21.4,0.954,5.644
21.5,0.930,5.638
21.6,0.901,5.629
21.7,0.868,5.616
21.8,0.830,5.601
21.9,0.788,5.582
22,0.742,5.561
22.1,0.692,5.537
22.2,0.639,5.510
22.3,0.582,5.480
22.4,0.523,5.448
22.5,0.460,5.413
22.6000000000001,0.396,5.377
22.7000000000001,0.329,5.338
22.8000000000001,0.261,5.298
22.9000000000001,0.191,5.256
23.0000000000001,0.121,5.213
23.1000000000001,0.049,5.169
23.2000000000001,-0.022,5.124
23.3000000000001,-0.093,5.078
23.4000000000001,-0.164,5.032
23.5000000000001,-0.234,4.986
23.6000000000001,-0.303,4.940
23.7000000000001,-0.370,4.894
23.8000000000001,-0.436,4.849
23.9000000000001,-0.499,4.804
24.0000000000001,-0.560,4.761
24.1000000000001,-0.617,4.719
24.2000000000001,-0.672,4.678
24.3000000000001,-0.723,4.639
24.4000000000001,-0.771,4.601
24.5000000000001,-0.814,4.566
24.6000000000001,-0.854,4.533
24.7000000000001,-0.889,4.502
24.8000000000001,-0.919,4.474
24.9000000000001,-0.945,4.448
25.0000000000001,-0.966,4.426
25.1000000000001,-0.982,4.406
25.2000000000001,-0.993,4.389
25.3000000000001,-0.999,4.376
25.4000000000001,-1.000,4.365
25.5000000000001,-0.995,4.358
25.6000000000001,-0.986,4.354
25.7000000000001,-0.972,4.354
25.8000000000001,-0.952,4.357
25.9000000000001,-0.928,4.363
26.0000000000001,-0.899,4.372
26.1000000000001,-0.865,4.384
26.2000000000001,-0.827,4.400
26.3000000000001,-0.785,4.419
26.4000000000001,-0.739,4.440
26.5000000000001,-0.689,4.465
26.6000000000001,-0.635,4.492
26.7000000000001,-0.579,4.522
26.8000000000001,-0.519,4.554
26.9000000000001,-0.456,4.589
27.0000000000001,-0.392,4.626
27.1000000000001,-0.325,4.664
27.2000000000001,-0.257,4.705
27.3000000000001,-0.187,4.746
27.4000000000001,-0.116,4.789
27.5000000000001,-0.045,4.834
27.6000000000001,0.026,4.879
27.7000000000001,0.098,4.924
27.8000000000001,0.169,4.970
27.9000000000001,0.239,5.017
28.0000000000001,0.307,5.063
28.1000000000001,0.375,5.109
28.2000000000001,0.440,5.154
28.3000000000001,0.503,5.198
28.4000000000001,0.563,5.242
28.5000000000001,0.621,5.284
28.6000000000001,0.675,5.325
28.7000000000001,0.726,5.364
28.8000000000001,0.774,5.401
28.9000000000001,0.817,5.436
29.0000000000001,0.856,5.469
29.1000000000001,0.891,5.500
29.2000000000001,0.921,5.528
29.3000000000001,0.946,5.553
29.4000000000001,0.967,5.575
29.5000000000001,0.983,5.595
29.6000000000002,0.993,5.612
29.7000000000002,0.999,5.625
29.8000000000002,1.000,5.635
29.9000000000002,0.995,5.642
30.0000000000002,0.985,5.646
30.1000000000002,0.971,5.646
30.2000000000002,0.951,5.643
30.3000000000002,0.926,5.637
30.4000000000002,0.897,5.627
30.5000000000002,0.863,5.615
30.6000000000002,0.825,5.599
30.7000000000002,0.782,5.580
30.8000000000002,0.736,5.558
30.9000000000002,0.686,5.533
31.0000000000002,0.632,5.506
31.1000000000002,0.575,5.476
31.2000000000002,0.515,5.444
31.3000000000002,0.453,5.409
31.4000000000002,0.388,5.372
31.5000000000002,0.321,5.333
31.6000000000002,0.252,5.293
31.7000000000002,0.183,5.251
31.8000000000002,0.112,5.208
31.9000000000002,0.041,5.164
32.0000000000002,-0.031,5.118
32.1000000000002,-0.102,5.073
32.2000000000002,-0.173,5.027
32.3000000000002,-0.243,4.981
32.4000000000002,-0.312,4.934
32.5000000000002,-0.379,4.889
32.6000000000002,-0.444,4.843
32.7000000000002,-0.507,4.799
32.8000000000002,-0.567,4.756
32.9000000000002,-0.624,4.714
33.0000000000002,-0.679,4.673
33.1000000000002,-0.729,4.634
33.2000000000002,-0.776,4.597
33.3000000000002,-0.819,4.562
33.4000000000002,-0.858,4.529
33.5000000000002,-0.893,4.499
33.6000000000002,-0.923,4.471
33.7000000000002,-0.948,4.446
33.8000000000002,-0.968,4.423
33.9000000000002,-0.984,4.404
34.0000000000002,-0.994,4.388
34.1000000000002,-0.999,4.374
34.2000000000002,-0.999,4.364
34.3000000000002,-0.995,4.358
34.4000000000002,-0.985,4.354
34.5000000000002,-0.970,4.354
34.6000000000002,-0.950,4.357
34.7000000000002,-0.925,4.364
34.8000000000002,-0.895,4.373
34.9000000000002,-0.861,4.386
35.0000000000002,-0.822,4.402
35.1000000000002,-0.780,4.421
35.2000000000002,-0.733,4.443
35.3000000000002,-0.683,4.468
35.4000000000002,-0.629,4.496
35.5000000000002,-0.571,4.526
35.6000000000002,-0.511,4.559
35.7000000000002,-0.449,4.593
35.8000000000002,-0.384,4.630
35.9000000000002,-0.317,4.669
36.0000000000002,-0.248,4.710
36.1000000000002,-0.178,4.752
36.2000000000002,-0.108,4.795
36.3000000000002,-0.036,4.839
36.4000000000002,0.035,4.884
36.5000000000002,0.107,4.930
36.6000000000003,0.177,4.976
36.7000000000003,0.247,5.022
36.8000000000003,0.316,5.068
36.9000000000003,0.383,5.114
37.0000000000003,0.448,5.159
37.1000000000003,0.510,5.204
37.2000000000003,0.571,5.247
37.3000000000003,0.628,5.289
37.4000000000003,0.682,5.330
37.5000000000003,0.732,5.368
37.6000000000003,0.779,5.405
37.7000000000003,0.822,5.440
37.8000000000003,0.861,5.473
37.9000000000003,0.895,5.503
38.0000000000003,0.924,5.531
38.1000000000003,0.949,5.556
38.2000000000003,0.969,5.578
38.3000000000003,0.984,5.597
38.4000000000003,0.994,5.613
38.5000000000003,0.999,5.626
38.6000000000003,0.999,5.636
38.7000000000003,0.994,5.643
38.8000000000003,0.984,5.646
38.9000000000003,0.968,5.646
39.0000000000003,0.948,5.643
39.1000000000003,0.923,5.636
39.2000000000003,0.893,5.626
39.3000000000003,0.859,5.613
39.4000000000003,0.820,5.597
39.5000000000003,0.777,5.577
39.6000000000003,0.730,5.555
39.7000000000003,0.679,5.530
39.8000000000003,0.625,5.502
39.9000000000003,0.568,5.472
40.0000000000003,0.508,5.439
40.1000000000003,0.445,5.404
40.2000000000003,0.380,5.367
40.3000000000003,0.313,5.328
40.4000000000003,0.244,5.288
40.5000000000003,0.174,5.246
40.6000000000003,0.103,5.202
40.7000000000003,0.032,5.158
40.8000000000003,-0.040,5.113
40.9000000000003,-0.111,5.067
41.0000000000003,-0.182,5.021
41.1000000000003,-0.251,4.975
41.2000000000003,-0.320,4.929
41.3000000000003,-0.387,4.883
41.4000000000003,-0.452,4.838
41.5000000000003,-0.514,4.794
41.6000000000003,-0.574,4.750
41.7000000000003,-0.631,4.708
41.8000000000003,-0.685,4.668
41.9000000000003,-0.735,4.629
42.0000000000003,-0.782,4.592
42.1000000000003,-0.824,4.558
42.2000000000003,-0.863,4.525
42.3000000000003,-0.897,4.495
42.4000000000003,-0.926,4.467
42.5000000000003,-0.951,4.443
42.6000000000003,-0.970,4.421
42.7000000000003,-0.985,4.402
42.8000000000003,-0.995,4.386
42.9000000000003,-1.000,4.373
43.0000000000003,-0.999,4.363
43.1000000000003,-0.994,4.357
43.2000000000003,-0.983,4.354
43.3000000000003,-0.967,4.354
43.4000000000003,-0.947,4.358
43.5000000000003,-0.921,4.365
43.6000000000003,-0.891,4.375
43.7000000000004,-0.856,4.388
43.8000000000004,-0.817,4.404
43.9000000000004,-0.774,4.424
44.0000000000004,-0.727,4.446
44.1000000000004,-0.676,4.471
44.2000000000004,-0.622,4.499
44.3000000000004,-0.564,4.530
44.4000000000004,-0.504,4.563
44.5000000000004,-0.441,4.598
44.6000000000004,-0.375,4.635
44.7000000000004,-0.308,4.674
44.8000000000004,-0.240,4.715
44.9000000000004,-0.170,4.757
45.0000000000004,-0.099,4.800
45.1000000000004,-0.027,4.845
45.2000000000004,0.044,4.890
45.3000000000004,0.115,4.936
45.4000000000004,0.186,4.982
45.5000000000004,0.256,5.028
45.6000000000004,0.324,5.074
45.7000000000004,0.391,5.120
45.8000000000004,0.456,5.165
45.9000000000004,0.518,5.209
46.0000000000004,0.578,5.252
46.1000000000004,0.635,5.294
46.2000000000004,0.688,5.334
46.3000000000004,0.738,5.373
46.4000000000004,0.785,5.410
46.5000000000004,0.827,5.445
46.6000000000004,0.865,5.477
46.7000000000004,0.899,5.507
46.8000000000004,0.928,5.534
46.9000000000004,0.952,5.559
47.0000000000004,0.971,5.581
47.1000000000004,0.986,5.599
47.2000000000004,0.995,5.615
47.3000000000004,1.000,5.628
47.4000000000004,0.999,5.637
47.5000000000004,0.993,5.643
47.6000000000004,0.982,5.646
47.7000000000004,0.966,5.646
47.8000000000004,0.945,5.642
47.9000000000004,0.920,5.635
48.0000000000004,0.889,5.625
48.1000000000004,0.854,5.611
48.2000000000004,0.815,5.595
48.3000000000004,0.771,5.575
48.4000000000004,0.724,5.552
48.5000000000004,0.673,5.527
48.6000000000004,0.618,5.499
48.7000000000004,0.561,5.468
48.8000000000004,0.500,5.435
48.9000000000004,0.437,5.400
49.0000000000004,0.371,5.363
49.1000000000004,0.304,5.324
49.2000000000004,0.235,5.283
49.3000000000004,0.165,5.240
49.4000000000004,0.094,5.197
49.5000000000004,0.023,5.153
49.6000000000004,-0.048,5.107
49.7000000000004,-0.120,5.061
49.8000000000004,-0.190,5.015
49.9000000000004,-0.260,4.969
50.0000000000004,-0.328,4.923
50.1000000000004,-0.395,4.877
50.2000000000004,-0.460,4.832
50.3000000000004,-0.522,4.788
50.4000000000004,-0.581,4.745
50.5000000000004,-0.638,4.703
50.6000000000004,-0.691,4.663
50.7000000000005,-0.741,4.625
50.8000000000005,-0.787,4.588
50.9000000000005,-0.829,4.553
51.0000000000005,-0.867,4.521
51.1000000000005,-0.901,4.491
51.2000000000005,-0.929,4.464
51.3000000000005,-0.953,4.440
51.4000000000005,-0.972,4.418
51.5000000000005,-0.987,4.400
51.6000000000005,-0.996,4.384
51.7000000000005,-1.000,4.372
51.8000000000005,-0.999,4.362
51.9000000000005,-0.993,4.356
52.0000000000005,-0.981,4.354
52.1000000000005,-0.965,4.354
52.2000000000005,-0.944,4.358
52.3000000000005,-0.918,4.366
52.4000000000005,-0.887,4.376
52.5000000000005,-0.852,4.390
52.6000000000005,-0.812,4.407
52.7000000000005,-0.769,4.426
52.8000000000005,-0.721,4.449
52.9000000000005,-0.670,4.475
53.0000000000005,-0.615,4.503
53.1000000000005,-0.557,4.534
53.2000000000005,-0.496,4.567
53.3000000000005,-0.433,4.602
53.4000000000005,-0.367,4.640
53.5000000000005,-0.300,4.679
53.6000000000005,-0.231,4.720
53.7000000000005,-0.161,4.762
53.8000000000005,-0.090,4.806
53.9000000000005,-0.019,4.850
54.0000000000005,0.053,4.896
54.1000000000005,0.124,4.941
54.2000000000005,0.195,4.988
54.3000000000005,0.264,5.034
54.4000000000005,0.332,5.080
54.5000000000005,0.399,5.125
54.6000000000005,0.463,5.170
54.7000000000005,0.526,5.214
54.8000000000005,0.585,5.257
54.9000000000005,0.641,5.299
55.0000000000005,0.695,5.339
55.1000000000005,0.744,5.378
55.2000000000005,0.790,5.414
55.3000000000005,0.832,5.449
55.4000000000005,0.869,5.481
55.5000000000005,0.902,5.510
55.6000000000005,0.931,5.537
55.7000000000005,0.955,5.562
55.8000000000005,0.973,5.583
55.9000000000005,0.987,5.601
56.0000000000005,0.996,5.617
56.1000000000005,1.000,5.629
56.2000000000005,0.998,5.638
56.3000000000005,0.992,5.644
56.4000000000005,0.980,5.646
56.5000000000005,0.964,5.645
56.6000000000005,0.942,5.641
56.7000000000005,0.916,5.634
56.8000000000005,0.885,5.623
56.9000000000005,0.850,5.609
57.0000000000005,0.810,5.592
57.1000000000005,0.766,5.572
57.2000000000005,0.718,5.549
57.3000000000005,0.666,5.524
57.4000000000005,0.611,5.495
57.5000000000005,0.553,5.464
57.6000000000005,0.492,5.431
57.7000000000005,0.429,5.395
57.8000000000006,0.363,5.358
57.9000000000006,0.296,5.319
58.0000000000006,0.227,5.278
58.1000000000006,0.157,5.235
58.2000000000006,0.086,5.192
58.3000000000006,0.014,5.147
58.4000000000006,-0.057,5.102
58.5000000000006,-0.128,5.056
58.6000000000006,-0.199,5.010
58.7000000000006,-0.268,4.963
58.8000000000006,-0.337,4.917
58.9000000000006,-0.403,4.872
59.0000000000006,-0.467,4.827
59.1000000000006,-0.529,4.783
59.2000000000006,-0.589,4.740
59.3000000000006,-0.645,4.698
59.4000000000006,-0.698,4.658
59.5000000000006,-0.747,4.620
59.6000000000006,-0.793,4.584
59.7000000000006,-0.834,4.549
59.8000000000006,-0.872,4.517
59.9000000000006,-0.904,4.488
60.0000000000006,-0.933,4.461
60.1000000000006,-0.956,4.437
60.2000000000006,-0.974,4.416
60.3000000000006,-0.988,4.397
60.4000000000006,-0.997,4.382
60.5000000000006,-1.000,4.370
60.6000000000006,-0.998,4.362
60.7000000000006,-0.991,4.356
60.8000000000006,-0.980,4.354
60.9000000000006,-0.963,4.355
61.0000000000006,-0.941,4.359
61.1000000000006,-0.914,4.367
61.2000000000006,-0.883,4.378
61.3000000000006,-0.847,4.392
61.4000000000006,-0.807,4.409
61.5000000000006,-0.763,4.429
61.6000000000006,-0.715,4.452
61.7000000000006,-0.663,4.478
61.8000000000006,-0.608,4.507
61.9000000000006,-0.550,4.538
62.0000000000006,-0.488,4.571
62.1000000000006,-0.425,4.607
62.2000000000006,-0.359,4.644
62.3000000000006,-0.292,4.684
62.4000000000006,-0.222,4.725
62.5000000000006,-0.152,4.767
62.6000000000006,-0.081,4.811
62.7000000000006,-0.010,4.856
62.8000000000006,0.062,4.901
62.9000000000006,0.133,4.947
63.0000000000006,0.203,4.993
63.1000000000006,0.273,5.039
63.2000000000006,0.341,5.085
63.3000000000006,0.407,5.131
63.4000000000006,0.471,5.176
63.5000000000006,0.533,5.220
63.6000000000006,0.592,5.263
63.7000000000006,0.648,5.304
63.8000000000006,0.701,5.344
63.9000000000006,0.750,5.382
64.0000000000006,0.795,5.419
64.1000000000006,0.837,5.453
64.2000000000006,0.874,5.484
64.3000000000006,0.906,5.514
64.4000000000006,0.934,5.541
64.5000000000006,0.957,5.564
64.6000000000006,0.975,5.585
64.7000000000006,0.989,5.604
64.8000000000006,0.997,5.619
64.9000000000006,1.000,5.630
65.0000000000006,0.998,5.639
65.1000000000006,0.991,5.644
65.2000000000006,0.979,5.646
65.3000000000006,0.961,5.645
65.4000000000006,0.939,5.640
65.5000000000006,0.913,5.633
65.6000000000005,0.881,5.622
65.7000000000005,0.845,5.607
65.8000000000005,0.805,5.590
65.9000000000005,0.760,5.570
66.0000000000005,0.712,5.546
66.1000000000005,0.660,5.520
66.2000000000005,0.604,5.492
66.3000000000005,0.546,5.460
66.4000000000005,0.485,5.427
66.5000000000005,0.421,5.391
66.6000000000005,0.355,5.353
66.7000000000005,0.287,5.314
66.8000000000005,0.218,5.272
66.9000000000005,0.148,5.230
67.0000000000005,0.077,5.186
67.1000000000005,0.005,5.141
67.2000000000005,-0.066,5.096
67.3000000000005,-0.137,5.050
67.4000000000004,-0.208,5.004
67.5000000000004,-0.277,4.958
67.6000000000004,-0.345,4.912
67.7000000000004,-0.411,4.866
67.8000000000004,-0.475,4.821
67.9000000000004,-0.537,4.778
68.0000000000004,-0.596,4.735
68.1000000000004,-0.652,4.693
68.2000000000004,-0.704,4.653
68.3000000000004,-0.753,4.615
68.4000000000004,-0.798,4.579
68.5000000000004,-0.839,4.545
68.6000000000004,-0.876,4.514
68.7000000000004,-0.908,4.484
68.8000000000004,-0.936,4.458
68.9000000000004,-0.958,4.434
69.0000000000004,-0.976,4.413
69.1000000000003,-0.989,4.395
69.2000000000003,-0.997,4.381
69.3000000000003,-1.000,4.369
69.4000000000003,-0.998,4.361
69.5000000000003,-0.990,4.356
69.6000000000003,-0.978,4.354
69.7000000000003,-0.960,4.355
69.8000000000003,-0.938,4.360
69.9000000000003,-0.911,4.368
70.0000000000003,-0.879,4.379
70.1000000000003,-0.843,4.394
70.2000000000003,-0.802,4.411
70.3000000000003,-0.757,4.432
70.4000000000003,-0.709,4.455
70.5000000000003,-0.656,4.481
70.6000000000003,-0.601,4.510
70.7000000000003,-0.542,4.542
70.8000000000003,-0.481,4.575
70.9000000000002,-0.417,4.611
71.0000000000002,-0.351,4.649
71.1000000000002,-0.283,4.689
71.2000000000002,-0.214,4.730
71.3000000000002,-0.143,4.773
71.4000000000002,-0.072,4.817
71.5000000000002,-0.001,4.861
71.6000000000002,0.070,4.907
71.7000000000002,0.142,4.953
71.8000000000002,0.212,4.999
71.9000000000002,0.281,5.045
72.0000000000002,0.349,5.091
72.1000000000002,0.415,5.137
72.2000000000002,0.479,5.181
72.3000000000002,0.540,5.225
72.4000000000002,0.599,5.268
72.5000000000002,0.655,5.309
72.6000000000002,0.707,5.349
72.7000000000001,0.756,5.387
72.8000000000001,0.801,5.423
72.9000000000001,0.841,5.457
73.0000000000001,0.878,5.488
73.1000000000001,0.910,5.517
73.2000000000001,0.937,5.544
73.3000000000001,0.960,5.567
73.4000000000001,0.977,5.588
73.5000000000001,0.990,5.606
73.6000000000001,0.998,5.620
73.7000000000001,1.000,5.632
73.8000000000001,0.997,5.640
73.9000000000001,0.990,5.645
74.0000000000001,0.977,5.646
74.1000000000001,0.959,5.645
74.2000000000001,0.936,5.640
74.3000000000001,0.909,5.631
74.4,0.877,5.620
74.5,0.840,5.605
74.6,0.799,5.588
74.7,0.754,5.567
74.8,0.705,5.543
74.9,0.653,5.517
75,0.597,5.488
75.1,0.538,5.456
75.2,0.477,5.422
75.3,0.413,5.386
75.4,0.347,5.348
75.5,0.279,5.309
75.6,0.210,5.267
75.7,0.139,5.225
75.8,0.068,5.181
75.9,-0.003,5.136
76,-0.075,5.090
76.1,-0.146,5.044
76.1999999999999,-0.216,4.998
76.2999999999999,-0.285,4.952
76.3999999999999,-0.353,4.906
76.4999999999999,-0.419,4.861
76.5999999999999,-0.483,4.816
76.6999999999999,-0.544,4.772
76.7999999999999,-0.603,4.730
76.8999999999999,-0.658,4.688
76.9999999999999,-0.710,4.649
77.0999999999999,-0.759,4.611
77.1999999999999,-0.803,4.575
77.2999999999999,-0.844,4.541
77.3999999999999,-0.880,4.510
77.4999999999999,-0.912,4.481
77.5999999999999,-0.939,4.455
77.6999999999999,-0.961,4.431
77.7999999999999,-0.978,4.411
77.8999999999998,-0.991,4.393
77.9999999999998,-0.998,4.379
78.0999999999998,-1.000,4.368
78.1999999999998,-0.997,4.360
78.2999999999998,-0.989,4.355
